Time, potential
    0.000000,  -330255.718750
    1.000000,  -346544.875000
    2.000000,  -369261.156250
    3.000000,  -398001.281250
    4.000000,  -426705.968750
    5.000000,  -451973.218750
    6.000000,  -458459.906250
    7.000000,  -464148.687500
    8.000000,  -464582.312500
    9.000000,  -469936.000000
   11.000000,  -474786.500000
   12.000000,  -476139.687500
   13.000000,  -480245.250000
   15.000000,  -482606.218750
   16.000000,  -484205.781250
   17.000000,  -486581.375000
   18.000000,  -486660.250000
   19.000000,  -489007.000000
   21.000000,  -491978.500000
   22.000000,  -492064.437500
   23.000000,  -495700.031250
   25.000000,  -497160.968750
   26.000000,  -497612.312500
   27.000000,  -499036.781250
   29.000000,  -501044.500000
   30.000000,  -501849.062500
   31.000000,  -504241.625000
   33.000000,  -505256.687500
   34.000000,  -505932.687500
   35.000000,  -506901.218750
   36.000000,  -507089.656250
   37.000000,  -507913.500000
   39.000000,  -509991.718750
   40.000000,  -510410.718750
   41.000000,  -512979.093750
   43.000000,  -513657.437500
   44.000000,  -514138.937500
   45.000000,  -514680.937500
   46.000000,  -514819.937500
   47.000000,  -515083.375000
   49.000000,  -517370.937500
   50.000000,  -517439.750000
   51.000000,  -520346.625000
   53.000000,  -520753.781250
   54.000000,  -521138.437500
   55.000000,  -521335.593750
   56.000000,  -521432.375000
   58.000000,  -523295.468750
   59.000000,  -523974.843750
   60.000000,  -526194.625000
   62.000000,  -526521.312500
   63.000000,  -526868.937500
   64.000000,  -527051.250000
   65.000000,  -527203.125000
   67.000000,  -528537.875000
   68.000000,  -529348.562500
   69.000000,  -531091.187500
   71.000000,  -531339.125000
   72.000000,  -531746.125000
   73.000000,  -531794.500000
   74.000000,  -532179.375000
   76.000000,  -532991.750000
   77.000000,  -533162.937500
   78.000000,  -534153.750000
   80.000000,  -534476.562500
   81.000000,  -534683.500000
   82.000000,  -534987.875000
   83.000000,  -535032.187500
   84.000000,  -535275.812500
   86.000000,  -536151.875000
   87.000000,  -536266.000000
   88.000000,  -537350.375000
   90.000000,  -537605.375000
   91.000000,  -537790.750000
   92.000000,  -537998.062500
   93.000000,  -538047.625000
   94.000000,  -538153.687500
   96.000000,  -539112.875000
   97.000000,  -539180.312500
   98.000000,  -540379.875000
  100.000000,  -540568.375000
  101.000000,  -540745.687500
  102.000000,  -540857.812500
  103.000000,  -540919.812500
  105.000000,  -541697.812500
  106.000000,  -542215.687500
  107.000000,  -543245.000000
  109.000000,  -543391.187500
  110.000000,  -543627.375000
  111.000000,  -543659.062500
  112.000000,  -543874.500000
  114.000000,  -544377.562500
  115.000000,  -544487.562500
  116.000000,  -545120.875000
  118.000000,  -545311.437500
  119.000000,  -545446.437500
  120.000000,  -545614.375000
  121.000000,  -545659.937500
  122.000000,  -545773.500000
  124.000000,  -546358.312500
  125.000000,  -546478.062500
  126.000000,  -547226.500000
  128.000000,  -547373.000000
  129.000000,  -547508.750000
  130.000000,  -547606.625000
  131.000000,  -547671.875000
  132.000000,  -547675.062500
  134.000000,  -548360.875000
  135.000000,  -548534.562500
  136.000000,  -549417.625000
  138.000000,  -549516.625000
  139.000000,  -549657.625000
  140.000000,  -549682.812500
  141.000000,  -549763.875000
  143.000000,  -550285.625000
  144.000000,  -550349.812500
  145.000000,  -551052.875000
  147.000000,  -551156.625000
  148.000000,  -551289.687500
  149.000000,  -551328.250000
  150.000000,  -551419.875000
  152.000000,  -551845.750000
  153.000000,  -551959.750000
  154.000000,  -552517.875000
  156.000000,  -552630.875000
  157.000000,  -552741.125000
  158.000000,  -552811.875000
  159.000000,  -552874.375000
  161.000000,  -553252.500000
  162.000000,  -553549.625000
  163.000000,  -554056.000000
  165.000000,  -554155.625000
  166.000000,  -554281.062500
  167.000000,  -554328.812500
  168.000000,  -554432.250000
  170.000000,  -554729.250000
  171.000000,  -554879.625000
  172.000000,  -555270.937500
  174.000000,  -555379.000000
  175.000000,  -555477.437500
  176.000000,  -555559.000000
  177.000000,  -555620.937500
  178.000000,  -555647.625000
  180.000000,  -556029.687500
  181.000000,  -556288.937500
  182.000000,  -556805.687500
  184.000000,  -556880.500000
  185.000000,  -556991.187500
  186.000000,  -557012.250000
  187.000000,  -557098.375000
  189.000000,  -557400.562500
  190.000000,  -557460.750000
  191.000000,  -557866.875000
  193.000000,  -557954.937500
  194.000000,  -558036.000000
  195.000000,  -558095.750000
  196.000000,  -558137.687500
  198.000000,  -558431.312500
  199.000000,  -558692.875000
  200.000000,  -559095.000000
  202.000000,  -559170.250000
  203.000000,  -559269.687500
  204.000000,  -559299.062500
  205.000000,  -559383.312500
  207.000000,  -559621.250000
  208.000000,  -559709.187500
  209.000000,  -560024.812500
  211.000000,  -560110.250000
  212.000000,  -560182.562500
  213.000000,  -560248.375000
  214.000000,  -560288.187500
  215.000000,  -560313.375000
  217.000000,  -560625.562500
  218.000000,  -560839.812500
  219.000000,  -561246.875000
  221.000000,  -561308.625000
  222.000000,  -561413.812500
  223.000000,  -561425.812500
  224.000000,  -561532.125000
  226.000000,  -561720.750000
  227.000000,  -561772.625000
  228.000000,  -562003.812500
  230.000000,  -562092.125000
  231.000000,  -562151.000000
  232.000000,  -562238.562500
  233.000000,  -562257.000000
  234.000000,  -562335.500000
  236.000000,  -562544.687500
  237.000000,  -562610.937500
  238.000000,  -562871.250000
  240.000000,  -562948.500000
  241.000000,  -563008.500000
  242.000000,  -563077.500000
  243.000000,  -563104.750000
  244.000000,  -563152.812500
  246.000000,  -563386.062500
  247.000000,  -563485.250000
  248.000000,  -563778.375000
  250.000000,  -563844.125000
  251.000000,  -563908.250000
  252.000000,  -563955.750000
  253.000000,  -563995.125000
  254.000000,  -564009.125000
  256.000000,  -564270.312500
  257.000000,  -564438.000000
  258.000000,  -564765.500000
  260.000000,  -564819.500000
  261.000000,  -564888.375000
  262.000000,  -564915.375000
  263.000000,  -564965.750000
  265.000000,  -565156.375000
  266.000000,  -565267.250000
  267.000000,  -565520.125000
  269.000000,  -565578.875000
  270.000000,  -565647.750000
  271.000000,  -565681.937500
  272.000000,  -565743.875000
  274.000000,  -565888.375000
  275.000000,  -566001.500000
  276.000000,  -566182.812500
  278.000000,  -566247.000000
  279.000000,  -566305.562500
  280.000000,  -566362.312500
  281.000000,  -566400.250000
  282.000000,  -566441.062500
  284.000000,  -566605.000000
  285.000000,  -566759.000000
  286.000000,  -566965.187500
  288.000000,  -567023.875000
  289.000000,  -567082.000000
  290.000000,  -567125.812500
  291.000000,  -567168.875000
  292.000000,  -567187.875000
  293.000000,  -567197.125000
  295.000000,  -567441.000000
  296.000000,  -567517.687500
  297.000000,  -567846.000000
  299.000000,  -567881.062500
  300.000000,  -567951.750000
  302.000000,  -568045.687500
  303.000000,  -568131.000000
  304.000000,  -568247.000000
  306.000000,  -568307.375000
  307.000000,  -568361.500000
  308.000000,  -568423.000000
  309.000000,  -568456.625000
  310.000000,  -568514.500000
  311.000000,  -568515.062500
  312.000000,  -568558.875000
  314.000000,  -568747.750000
  315.000000,  -568749.437500
  316.000000,  -568991.750000
  318.000000,  -569041.437500
  319.000000,  -569080.875000
  320.000000,  -569117.250000
  321.000000,  -569130.625000
  322.000000,  -569138.812500
  324.000000,  -569366.062500
  325.000000,  -569397.687500
  326.000000,  -569690.375000
  328.000000,  -569726.375000
  329.000000,  -569775.250000
  330.000000,  -569786.250000
  331.000000,  -569815.812500
  333.000000,  -569993.250000
  334.000000,  -570036.875000
  335.000000,  -570276.125000
  337.000000,  -570314.062500
  338.000000,  -570367.625000
  339.000000,  -570381.937500
  340.000000,  -570425.937500
  342.000000,  -570562.875000
  343.000000,  -570612.125000
  344.000000,  -570786.750000
  346.000000,  -570834.625000
  347.000000,  -570875.375000
  348.000000,  -570913.625000
  349.000000,  -570935.125000
  350.000000,  -570955.500000
  352.000000,  -571118.187500
  353.000000,  -571202.750000
  354.000000,  -571410.875000
  356.000000,  -571450.125000
  357.000000,  -571495.875000
  358.000000,  -571517.687500
  359.000000,  -571549.000000
  361.000000,  -571679.875000
  362.000000,  -571774.187500
  363.000000,  -571950.250000
  365.000000,  -571990.625000
  366.000000,  -572040.125000
  367.000000,  -572062.500000
  368.000000,  -572106.750000
  370.000000,  -572207.437500
  371.000000,  -572279.187500
  372.000000,  -572406.375000
  374.000000,  -572452.125000
  375.000000,  -572492.750000
  376.000000,  -572532.625000
  377.000000,  -572557.375000
  378.000000,  -572586.750000
  380.000000,  -572705.125000
  381.000000,  -572806.687500
  382.000000,  -572957.750000
  384.000000,  -572999.125000
  385.000000,  -573040.750000
  386.000000,  -573070.312500
  387.000000,  -573100.312500
  388.000000,  -573111.125000
  389.000000,  -573116.375000
  391.000000,  -573298.625000
  392.000000,  -573332.500000
  393.000000,  -573580.875000
  395.000000,  -573604.625000
  396.000000,  -573654.625000
  398.000000,  -573727.250000
  399.000000,  -573787.625000
  400.000000,  -573877.937500
  402.000000,  -573922.062500
  403.000000,  -573960.250000
  404.000000,  -574004.500000
  405.000000,  -574027.750000
  406.000000,  -574067.062500
  408.000000,  -574152.250000
  409.000000,  -574228.187500
  410.000000,  -574335.437500
  412.000000,  -574376.125000
  413.000000,  -574413.937500
  414.000000,  -574450.312500
  415.000000,  -574476.000000
  416.000000,  -574503.062500
  417.000000,  -574506.125000
  418.000000,  -574511.625000
  420.000000,  -574693.562500
  422.000000,  -574760.562500
  423.000000,  -574827.312500
  424.000000,  -574834.750000
  425.000000,  -574912.750000
  427.000000,  -574969.562500
  428.000000,  -574993.250000
  429.000000,  -575061.875000
  431.000000,  -575110.375000
  432.000000,  -575145.437500
  433.000000,  -575201.312500
  434.000000,  -575207.250000
  435.000000,  -575265.375000
  437.000000,  -575339.062500
  438.000000,  -575362.187500
  439.000000,  -575456.187500
  441.000000,  -575498.812500
  442.000000,  -575528.562500
  443.000000,  -575570.875000
  444.000000,  -575582.687500
  445.000000,  -575619.000000
  447.000000,  -575713.375000
  448.000000,  -575758.750000
  449.000000,  -575884.812500
  451.000000,  -575920.062500
  452.000000,  -575953.750000
  453.000000,  -575979.875000
  454.000000,  -576006.500000
  455.000000,  -576011.750000
  456.000000,  -576021.250000
  458.000000,  -576175.375000
  459.000000,  -576187.562500
  460.000000,  -576387.312500
  462.000000,  -576412.062500
  463.000000,  -576444.312500
  464.000000,  -576452.875000
  465.000000,  -576471.875000
  467.000000,  -576596.187500
  468.000000,  -576628.125000
  469.000000,  -576797.000000
  471.000000,  -576823.750000
  472.000000,  -576861.062500
  473.000000,  -576869.500000
  474.000000,  -576900.875000
  476.000000,  -576998.750000
  477.000000,  -577029.500000
  478.000000,  -577154.500000
  480.000000,  -577187.500000
  481.000000,  -577216.125000
  482.000000,  -577241.937500
  483.000000,  -577257.437500
  484.000000,  -577270.750000
  486.000000,  -577388.937500
  487.000000,  -577446.062500
  488.000000,  -577598.750000
  490.000000,  -577625.687500
  491.000000,  -577658.125000
  492.000000,  -577672.312500
  493.000000,  -577695.000000
  495.000000,  -577790.187500
  496.000000,  -577848.250000
  497.000000,  -577976.875000
  499.000000,  -578005.625000
  500.000000,  -578040.500000
  501.000000,  -578055.750000
  502.000000,  -578085.875000
  504.000000,  -578161.750000
  505.000000,  -578214.250000
  506.000000,  -578310.687500
  508.000000,  -578343.812500
  509.000000,  -578372.500000
  510.000000,  -578399.937500
  511.000000,  -578419.000000
  512.000000,  -578436.625000
  514.000000,  -578527.625000
  515.000000,  -578606.437500
  516.000000,  -578723.437500
  518.000000,  -578751.500000
  519.000000,  -578782.625000
  520.000000,  -578801.937500
  521.000000,  -578825.375000
  522.000000,  -578828.062500
  523.000000,  -578833.750000
  525.000000,  -578971.250000
  526.000000,  -578972.875000
  527.000000,  -579160.875000
  529.000000,  -579177.250000
  530.000000,  -579211.562500
  532.000000,  -579268.500000
  533.000000,  -579315.250000
  534.000000,  -579386.187500
  536.000000,  -579418.500000
  537.000000,  -579445.500000
  538.000000,  -579476.312500
  539.000000,  -579493.812500
  540.000000,  -579520.187500
  542.000000,  -579587.750000
  543.000000,  -579648.437500
  544.000000,  -579733.500000
  546.000000,  -579763.250000
  547.000000,  -579790.937500
  548.000000,  -579816.000000
  549.000000,  -579835.562500
  550.000000,  -579850.812500
  551.000000,  -579854.125000
  553.000000,  -579965.125000
  554.000000,  -580045.875000
  555.000000,  -580198.500000
  557.000000,  -580217.125000
  558.000000,  -580253.562500
  560.000000,  -580296.750000
  561.000000,  -580337.000000
  562.000000,  -580389.375000
  564.000000,  -580420.125000
  565.000000,  -580448.187500
  566.000000,  -580479.937500
  567.000000,  -580497.375000
  568.000000,  -580528.437500
  570.000000,  -580578.625000
  571.000000,  -580626.000000
  572.000000,  -580688.625000
  574.000000,  -580717.812500
  575.000000,  -580743.937500
  576.000000,  -580772.250000
  577.000000,  -580788.875000
  578.000000,  -580814.125000
  579.000000,  -580814.875000
  580.000000,  -580829.875000
  582.000000,  -580936.000000
  583.000000,  -580937.062500
  584.000000,  -581074.937500
  586.000000,  -581095.875000
  587.000000,  -581117.750000
  588.000000,  -581129.937500
  589.000000,  -581140.125000
  591.000000,  -581232.000000
  592.000000,  -581282.437500
  593.000000,  -581408.750000
  595.000000,  -581428.312500
  596.000000,  -581459.000000
  597.000000,  -581463.625000
  598.000000,  -581491.625000
  600.000000,  -581559.750000
  601.000000,  -581578.812500
  602.000000,  -581665.687500
  604.000000,  -581692.312500
  605.000000,  -581711.562500
  606.000000,  -581736.000000
  607.000000,  -581744.250000
  608.000000,  -581759.375000
  610.000000,  -581842.250000
  611.000000,  -581873.937500
  612.000000,  -581981.125000
  614.000000,  -582003.187500
  615.000000,  -582025.937500
  616.000000,  -582040.500000
  617.000000,  -582054.500000
  619.000000,  -582125.875000
  620.000000,  -582191.250000
  621.000000,  -582288.750000
  623.000000,  -582310.500000
  624.000000,  -582337.500000
  625.000000,  -582348.500000
  626.000000,  -582375.125000
  628.000000,  -582428.500000
  629.000000,  -582462.250000
  630.000000,  -582531.000000
  632.000000,  -582556.500000
  633.000000,  -582577.687500
  634.000000,  -582600.250000
  635.000000,  -582613.062500
  636.000000,  -582630.250000
  638.000000,  -582694.750000
  639.000000,  -582743.875000
  640.000000,  -582825.937500
  642.000000,  -582848.375000
  643.000000,  -582871.062500
  644.000000,  -582888.000000
  645.000000,  -582904.437500
  646.000000,  -582910.625000
  647.000000,  -582913.062500
  649.000000,  -583015.250000
  650.000000,  -583034.875000
  651.000000,  -583175.562500
  653.000000,  -583187.812500
  654.000000,  -583216.500000
  656.000000,  -583257.000000
  657.000000,  -583289.125000
  658.000000,  -583340.437500
  660.000000,  -583364.812500
  661.000000,  -583385.687500
  662.000000,  -583410.187500
  663.000000,  -583423.812500
  664.000000,  -583445.625000
  666.000000,  -583494.250000
  667.000000,  -583535.062500
  668.000000,  -583595.437500
  670.000000,  -583619.062500
  671.000000,  -583639.812500
  672.000000,  -583660.125000
  673.000000,  -583674.125000
  674.000000,  -583689.250000
  675.000000,  -583689.625000
  676.000000,  -583691.750000
  678.000000,  -583796.875000
  680.000000,  -583835.562500
  681.000000,  -583874.125000
  682.000000,  -583877.125000
  683.000000,  -583921.937500
  685.000000,  -583954.500000
  686.000000,  -583967.062500
  687.000000,  -584005.312500
  689.000000,  -584034.375000
  690.000000,  -584053.312500
  691.000000,  -584086.375000
  692.000000,  -584088.250000
  693.000000,  -584122.312500
  695.000000,  -584164.125000
  696.000000,  -584175.000000
  697.000000,  -584228.500000
  699.000000,  -584253.187500
  700.000000,  -584269.437500
  701.000000,  -584293.812500
  702.000000,  -584298.937500
  703.000000,  -584320.625000
  705.000000,  -584375.000000
  706.000000,  -584393.937500
  707.000000,  -584467.062500
  709.000000,  -584487.125000
  710.000000,  -584505.875000
  711.000000,  -584521.625000
  712.000000,  -584534.375000
  713.000000,  -584539.000000
  714.000000,  -584540.500000
  716.000000,  -584633.375000
  717.000000,  -584645.375000
  718.000000,  -584766.687500
  720.000000,  -584779.500000
  721.000000,  -584799.562500
  722.000000,  -584801.500000
  723.000000,  -584814.000000
  725.000000,  -584886.875000
  726.000000,  -584892.625000
  727.000000,  -584990.625000
  729.000000,  -585006.187500
  730.000000,  -585025.875000
  731.000000,  -585032.000000
  732.000000,  -585046.500000
  734.000000,  -585106.500000
  735.000000,  -585129.937500
  736.000000,  -585206.875000
  738.000000,  -585225.312500
  739.000000,  -585243.250000
  740.000000,  -585256.000000
  741.000000,  -585266.000000
  742.000000,  -585269.937500
  744.000000,  -585342.750000
  745.000000,  -585391.250000
  746.000000,  -585485.875000
  748.000000,  -585500.750000
  749.000000,  -585521.562500
  750.000000,  -585526.000000
  751.000000,  -585542.250000
  753.000000,  -585597.312500
  754.000000,  -585616.687500
  755.000000,  -585690.375000
  757.000000,  -585708.187500
  758.000000,  -585726.375000
  759.000000,  -585736.625000
  760.000000,  -585751.250000
  762.000000,  -585798.562500
  763.000000,  -585840.375000
  764.000000,  -585901.750000
  766.000000,  -585919.250000
  767.000000,  -585937.250000
  768.000000,  -585951.562500
  769.000000,  -585964.625000
  770.000000,  -585970.625000
  771.000000,  -585973.250000
  773.000000,  -586049.187500
  774.000000,  -586071.625000
  775.000000,  -586177.000000
  777.000000,  -586186.625000
  778.000000,  -586209.375000
  780.000000,  -586239.750000
  781.000000,  -586267.000000
  782.000000,  -586305.125000
  784.000000,  -586325.000000
  785.000000,  -586341.375000
  786.000000,  -586361.125000
  787.000000,  -586371.437500
  788.000000,  -586389.125000
  789.000000,  -586389.375000
  790.000000,  -586402.500000
  792.000000,  -586466.687500
  794.000000,  -586493.000000
  795.000000,  -586518.562500
  796.000000,  -586527.000000
  797.000000,  -586555.375000
  799.000000,  -586580.625000
  800.000000,  -586597.937500
  801.000000,  -586628.625000
  803.000000,  -586648.312500
  804.000000,  -586666.375000
  805.000000,  -586688.250000
  806.000000,  -586696.000000
  807.000000,  -586717.937500
  809.000000,  -586749.000000
  810.000000,  -586772.312500
  811.000000,  -586813.500000
  813.000000,  -586831.750000
  814.000000,  -586847.812500
  815.000000,  -586864.562500
  816.000000,  -586875.750000
  817.000000,  -586888.750000
  818.000000,  -586891.625000
  819.000000,  -586895.312500
  821.000000,  -586967.750000
  822.000000,  -586974.437500
  823.000000,  -587074.625000
  825.000000,  -587083.875000
  826.000000,  -587103.625000
  828.000000,  -587134.375000
  829.000000,  -587160.812500
  830.000000,  -587199.125000
  832.000000,  -587217.250000
  833.000000,  -587232.375000
  834.000000,  -587249.812500
  835.000000,  -587259.750000
  836.000000,  -587274.875000
  837.000000,  -587275.250000
  838.000000,  -587283.750000
  840.000000,  -587349.312500
